#    s        x        y     Ue/Vinf    Dstar     Theta      Cf       H
   0.00000  1.00000  0.00126  0.89980  0.010055  0.005507  0.000958     1.826
   0.00500  0.99505  0.00195  0.90536  0.009690  0.005377  0.001016     1.802
   0.01347  0.98666  0.00312  0.91548  0.009076  0.005151  0.001124     1.762
   0.02315  0.97707  0.00443  0.92651  0.008482  0.004920  0.001242     1.724
   0.03395  0.96637  0.00588  0.93826  0.007919  0.004689  0.001368     1.689
   0.04566  0.95476  0.00744  0.95008  0.007413  0.004470  0.001493     1.658
   0.05805  0.94248  0.00905  0.96191  0.006956  0.004264  0.001619     1.631
   0.07087  0.92976  0.01071  0.97325  0.006558  0.004077  0.001739     1.609
   0.08396  0.91678  0.01237  0.98407  0.006211  0.003907  0.001853     1.590
   0.09720  0.90364  0.01402  0.99421  0.005909  0.003754  0.001959     1.574
   0.11054  0.89040  0.01567  1.00388  0.005640  0.003615  0.002060     1.560
   0.12393  0.87711  0.01729  1.01294  0.005404  0.003488  0.002154     1.549
   0.13735  0.86379  0.01889  1.02160  0.005190  0.003371  0.002243     1.540
   0.15079  0.85045  0.02047  1.02988  0.004996  0.003263  0.002328     1.531
   0.16423  0.83709  0.02203  1.03772  0.004821  0.003162  0.002407     1.524
   0.17768  0.82373  0.02357  1.04537  0.004656  0.003067  0.002485     1.518
   0.19114  0.81036  0.02508  1.05261  0.004507  0.002979  0.002557     1.513
   0.20460  0.79698  0.02657  1.05972  0.004366  0.002895  0.002629     1.508
   0.21806  0.78360  0.02803  1.06662  0.004233  0.002814  0.002697     1.504
   0.23152  0.77022  0.02947  1.07333  0.004108  0.002738  0.002764     1.501
   0.24498  0.75683  0.03089  1.08003  0.003987  0.002663  0.002831     1.497
   0.25843  0.74345  0.03228  1.08645  0.003875  0.002593  0.002895     1.494
   0.27189  0.73006  0.03365  1.09283  0.003766  0.002524  0.002958     1.492
   0.28534  0.71668  0.03500  1.09916  0.003661  0.002458  0.003021     1.490
   0.29879  0.70329  0.03632  1.10543  0.003560  0.002393  0.003083     1.488
   0.31224  0.68991  0.03761  1.11166  0.003463  0.002330  0.003146     1.486
   0.32568  0.67653  0.03888  1.11780  0.003369  0.002269  0.003207     1.485
   0.33912  0.66315  0.04013  1.12399  0.003276  0.002209  0.003269     1.483
   0.35255  0.64977  0.04135  1.13014  0.003187  0.002151  0.003331     1.482
   0.36597  0.63640  0.04254  1.13632  0.003099  0.002093  0.003394     1.481
   0.37939  0.62303  0.04370  1.14246  0.003014  0.002037  0.003457     1.480
   0.39280  0.60967  0.04483  1.14868  0.002931  0.001981  0.003521     1.479
   0.40620  0.59632  0.04594  1.15492  0.002849  0.001927  0.003586     1.478
   0.41959  0.58297  0.04701  1.16115  0.002769  0.001874  0.003651     1.478
   0.43297  0.56963  0.04805  1.16749  0.002690  0.001821  0.003718     1.477
   0.44634  0.55630  0.04906  1.17380  0.002613  0.001769  0.003785     1.477
   0.45970  0.54298  0.05003  1.18025  0.002536  0.001718  0.003855     1.477
   0.47305  0.52966  0.05097  1.18675  0.002461  0.001667  0.003926     1.476
   0.48638  0.51636  0.05188  1.19334  0.002387  0.001617  0.003999     1.476
   0.49969  0.50307  0.05275  1.19995  0.002314  0.001568  0.004073     1.476
   0.51300  0.48980  0.05357  1.20673  0.002242  0.001519  0.004150     1.476
   0.52628  0.47653  0.05436  1.21352  0.002171  0.001471  0.004227     1.476
   0.53955  0.46329  0.05510  1.22048  0.002101  0.001423  0.004309     1.476
   0.55280  0.45006  0.05580  1.22749  0.002032  0.001376  0.004391     1.476
   0.56603  0.43684  0.05646  1.23471  0.001963  0.001330  0.004478     1.477
   0.57924  0.42365  0.05707  1.24187  0.001897  0.001284  0.004564     1.477
   0.59242  0.41048  0.05762  1.24934  0.001829  0.001238  0.004657     1.477
   0.60558  0.39732  0.05813  1.25687  0.001764  0.001193  0.004751     1.478
   0.61872  0.38420  0.05858  1.26455  0.001699  0.001149  0.004850     1.478
   0.63183  0.37109  0.05897  1.27246  0.001634  0.001105  0.004953     1.479
   0.64491  0.35802  0.05931  1.28032  0.001571  0.001061  0.005056     1.480
   0.65796  0.34497  0.05958  1.28861  0.001507  0.001018  0.005169     1.481
   0.67097  0.33196  0.05979  1.29689  0.001445  0.000976  0.005283     1.482
   0.68396  0.31898  0.05994  1.30555  0.001383  0.000933  0.005406     1.483
   0.69690  0.30603  0.06001  1.31420  0.001323  0.000891  0.005529     1.484
   0.70980  0.29313  0.06001  1.32326  0.001262  0.000850  0.005664     1.485
   0.72266  0.28027  0.05993  1.33252  0.001202  0.000809  0.005805     1.486
   0.73547  0.26746  0.05977  1.34200  0.001143  0.000768  0.005953     1.488
   0.74823  0.25471  0.05952  1.35180  0.001085  0.000728  0.006111     1.489
   0.76093  0.24201  0.05919  1.36197  0.001026  0.000688  0.006282     1.491
   0.77356  0.22938  0.05877  1.37237  0.000969  0.000649  0.006463     1.492
   0.78613  0.21683  0.05824  1.38329  0.000911  0.000610  0.006664     1.493
   0.79862  0.20435  0.05762  1.39450  0.000854  0.000571  0.006881     1.495
   0.81102  0.19198  0.05689  1.40623  0.000797  0.000533  0.007124     1.496
   0.82331  0.17971  0.05605  1.41851  0.000740  0.000495  0.007398     1.496
   0.83548  0.16758  0.05509  1.43115  0.000684  0.000458  0.007705     1.496
   0.84751  0.15560  0.05401  1.44438  0.000628  0.000420  0.008059     1.494
   0.85937  0.14380  0.05280  1.45856  0.000572  0.000383  0.008483     1.492
   0.87102  0.13223  0.05147  1.47280  0.000517  0.000347  0.008951     1.489
   0.88241  0.12093  0.05001  1.48780  0.000463  0.000311  0.009477     1.487
   0.89347  0.10998  0.04843  1.50327  0.000412  0.000277  0.009972     1.491
   0.90414  0.09945  0.04674  1.51836  0.000371  0.000244  0.010082     1.521
   0.91431  0.08944  0.04494  1.53384  0.000352  0.000215  0.008855     1.639
   0.92391  0.08002  0.04308  1.55458  0.000383  0.000190  0.005362     2.015
   0.93286  0.07128  0.04116  1.60125  0.000503  0.000161  0.001218     3.115
   0.94110  0.06327  0.03922  1.62892  0.000540  0.000146  0.000222     3.692
   0.94861  0.05601  0.03729  1.64694  0.000518  0.000137  0.000123     3.778
   0.95540  0.04949  0.03539  1.66597  0.000479  0.000128  0.000191     3.739
   0.96152  0.04366  0.03353  1.68580  0.000435  0.000120  0.000391     3.633
   0.96703  0.03846  0.03173  1.70624  0.000392  0.000112  0.000674     3.519
   0.97199  0.03382  0.02997  1.72725  0.000352  0.000104  0.001079     3.395
   0.97646  0.02969  0.02827  1.74846  0.000316  0.000096  0.001563     3.285
   0.98052  0.02598  0.02661  1.76973  0.000284  0.000089  0.002154     3.182
   0.98421  0.02266  0.02500  1.79078  0.000255  0.000083  0.002853     3.089
   0.98759  0.01968  0.02342  1.81124  0.000230  0.000076  0.003635     3.010
   0.99069  0.01698  0.02187  1.83127  0.000206  0.000070  0.004665     2.923
   0.99357  0.01455  0.02034  1.84936  0.000186  0.000065  0.005676     2.862
   0.99623  0.01235  0.01883  1.86645  0.000167  0.000060  0.007029     2.790
   0.99872  0.01037  0.01733  1.88070  0.000150  0.000055  0.008575     2.724
   1.00105  0.00858  0.01584  1.89112  0.000134  0.000050  0.010322     2.663
   1.00324  0.00698  0.01434  1.89632  0.000121  0.000046  0.012117     2.616
   1.00532  0.00555  0.01284  1.89615  0.000108  0.000042  0.014445     2.557
   1.00728  0.00429  0.01134  1.88638  0.000097  0.000039  0.016723     2.511
   1.00915  0.00319  0.00982  1.86615  0.000088  0.000036  0.019386     2.459
   1.01094  0.00226  0.00830  1.83093  0.000080  0.000033  0.021802     2.416
   1.01265  0.00149  0.00677  1.77965  0.000073  0.000031  0.023977     2.377
   1.01429  0.00089  0.00524  1.71086  0.000067  0.000029  0.025563     2.345
   1.01588  0.00044  0.00371  1.62469  0.000063  0.000027  0.026685     2.311
   1.01742  0.00015  0.00220  1.52125  0.000060  0.000026  0.026695     2.285
   1.01890  0.00002  0.00072  1.40618  0.000058  0.000026  0.025718     2.268
   1.02035  0.00002 -0.00073  1.28370  0.000057  0.000025  0.024226     2.251
   1.02184  0.00015 -0.00220  1.15268  0.000057  0.000025  0.021674     2.253
   1.02337  0.00044 -0.00371  1.01392  0.000056  0.000025  0.019852     2.221
   1.02496  0.00089 -0.00524  0.86603  0.000058  0.000026  0.016287     2.227
   1.02661  0.00149 -0.00677  0.72236  0.000059  0.000027  0.013428     2.215
   1.02832  0.00226 -0.00830  0.58020  0.000061  0.000028  0.010308     2.214
   1.03010  0.00319 -0.00982  0.44564  0.000065  0.000029  0.007537     2.210
   1.03197  0.00429 -0.01134  0.32113  0.000069  0.000031  0.005057     2.221
   1.03394  0.00555 -0.01284  0.20614  0.000072  0.000033  0.003095     2.216
   1.03601  0.00698 -0.01434  0.09988  0.000078  0.000035  0.001379     2.228
   1.03820  0.00858 -0.01584  0.00553  0.000086  0.000039  0.000069     2.230
   1.04053  0.01037 -0.01733 -0.08248  0.000086  0.000039  0.001028     2.230
   1.04302  0.01235 -0.01883 -0.16109  0.000097  0.000043  0.001724     2.262
   1.04569  0.01455 -0.02034 -0.23274  0.000102  0.000046  0.002450     2.231
   1.04856  0.01698 -0.02187 -0.30000  0.000110  0.000048  0.002842     2.265
   1.05167  0.01968 -0.02342 -0.35949  0.000118  0.000052  0.003151     2.267
   1.05505  0.02266 -0.02500 -0.41607  0.000126  0.000055  0.003441     2.266
   1.05874  0.02598 -0.02661 -0.46790  0.000136  0.000059  0.003523     2.286
   1.06279  0.02969 -0.02827 -0.51569  0.000145  0.000063  0.003615     2.289
   1.06727  0.03382 -0.02997 -0.56096  0.000155  0.000068  0.003659     2.295
   1.07222  0.03846 -0.03173 -0.60237  0.000168  0.000073  0.003589     2.311
   1.07773  0.04366 -0.03353 -0.64197  0.000179  0.000077  0.003595     2.309
   1.08385  0.04949 -0.03539 -0.67848  0.000193  0.000083  0.003469     2.326
   1.09064  0.05601 -0.03729 -0.71256  0.000207  0.000089  0.003386     2.331
   1.09815  0.06327 -0.03922 -0.74412  0.000222  0.000095  0.003262     2.341
   1.10639  0.07128 -0.04116 -0.77328  0.000238  0.000101  0.003145     2.348
   1.11534  0.08002 -0.04308 -0.79984  0.000255  0.000108  0.003012     2.357
   1.12494  0.08944 -0.04494 -0.82368  0.000273  0.000115  0.002875     2.366
   1.13512  0.09945 -0.04674 -0.84515  0.000291  0.000122  0.002753     2.373
   1.14578  0.10998 -0.04843 -0.86424  0.000309  0.000130  0.002629     2.381
   1.15685  0.12093 -0.05001 -0.88110  0.000328  0.000137  0.002509     2.389
   1.16823  0.13223 -0.05147 -0.89586  0.000346  0.000145  0.002393     2.397
   1.17988  0.14380 -0.05280 -0.90912  0.000364  0.000152  0.002299     2.402
   1.19174  0.15560 -0.05401 -0.92060  0.000383  0.000159  0.002193     2.411
   1.20377  0.16758 -0.05509 -0.93076  0.000402  0.000166  0.002102     2.418
   1.21594  0.17971 -0.05605 -0.93982  0.000420  0.000173  0.002020     2.423
   1.22824  0.19198 -0.05689 -0.94782  0.000438  0.000180  0.001940     2.430
   1.24064  0.20435 -0.05762 -0.95478  0.000457  0.000187  0.001860     2.438
   1.25312  0.21683 -0.05824 -0.96101  0.000475  0.000194  0.001791     2.444
   1.26569  0.22938 -0.05877 -0.96658  0.000493  0.000201  0.001726     2.449
   1.27833  0.24201 -0.05919 -0.97131  0.000512  0.000208  0.001656     2.458
   1.29103  0.25471 -0.05952 -0.97584  0.000528  0.000215  0.001608     2.460
   1.30378  0.26746 -0.05977 -0.97948  0.000547  0.000222  0.001541     2.470
   1.31659  0.28027 -0.05993 -0.98290  0.000565  0.000228  0.001493     2.475
   1.32945  0.29313 -0.06001 -0.98580  0.000583  0.000235  0.001440     2.482
   1.34235  0.30603 -0.06001 -0.98839  0.000601  0.000241  0.001392     2.488
   1.35530  0.31898 -0.05994 -0.99061  0.000619  0.000248  0.001345     2.495
   1.36828  0.33196 -0.05979 -0.99265  0.000636  0.000254  0.001305     2.499
   1.38130  0.34497 -0.05958 -0.99430  0.000654  0.000261  0.001261     2.507
   1.39434  0.35802 -0.05931 -0.99569  0.000672  0.000268  0.001220     2.514
   1.40743  0.37109 -0.05897 -0.99700  0.000690  0.000274  0.001186     2.518
   1.42053  0.38420 -0.05858 -0.99799  0.000708  0.000280  0.001148     2.525
   1.43367  0.39733 -0.05813 -0.99891  0.000725  0.000287  0.001116     2.530
   1.44683  0.41048 -0.05762 -0.99947  0.000744  0.000293  0.001077     2.538
   1.46002  0.42365 -0.05707 -1.00001  0.000761  0.000299  0.001048     2.544
   1.47323  0.43684 -0.05646 -1.00046  0.000779  0.000306  0.001019     2.548
   1.48645  0.45006 -0.05580 -1.00062  0.000798  0.000312  0.000987     2.556
   1.49970  0.46329 -0.05510 -1.00080  0.000815  0.000318  0.000960     2.562
   1.51297  0.47653 -0.05436 -1.00084  0.000833  0.000324  0.000934     2.567
   1.52626  0.48980 -0.05357 -1.00076  0.000851  0.000331  0.000908     2.574
   1.53956  0.50307 -0.05275 -1.00063  0.000868  0.000337  0.000884     2.579
   1.55288  0.51636 -0.05188 -1.00038  0.000887  0.000343  0.000859     2.586
   1.56621  0.52966 -0.05097 -1.00006  0.000905  0.000349  0.000836     2.592
   1.57955  0.54298 -0.05003 -0.99961  0.000924  0.000355  0.000811     2.599
   1.59291  0.55630 -0.04906 -0.99918  0.000941  0.000361  0.000791     2.605
   1.60628  0.56963 -0.04805 -0.99867  0.000959  0.000367  0.000771     2.611
   1.61966  0.58297 -0.04701 -0.99808  0.000978  0.000374  0.000750     2.617
   1.63305  0.59632 -0.04594 -0.99739  0.000997  0.000380  0.000729     2.625
   1.64645  0.60967 -0.04483 -0.99668  0.001015  0.000386  0.000709     2.632
   1.65986  0.62303 -0.04370 -0.99595  0.001034  0.000392  0.000691     2.638
   1.67328  0.63640 -0.04254 -0.99507  0.001053  0.000398  0.000671     2.646
   1.68670  0.64977 -0.04135 -0.99424  0.001072  0.000404  0.000654     2.653
   1.70014  0.66315 -0.04013 -0.99322  0.001093  0.000410  0.000633     2.663
   1.71357  0.67653 -0.03888 -0.99218  0.001114  0.000417  0.000613     2.673
   1.72701  0.68991 -0.03761 -0.99116  0.001133  0.000423  0.000596     2.680
   1.74046  0.70329 -0.03632 -0.98997  0.001156  0.000429  0.000576     2.692
   1.75391  0.71668 -0.03500 -0.98881  0.001176  0.000435  0.000559     2.702
   1.76736  0.73006 -0.03365 -0.98744  0.001201  0.000442  0.000537     2.716
   1.78082  0.74345 -0.03228 -0.98601  0.001226  0.000449  0.000515     2.732
   1.79428  0.75683 -0.03089 -0.98453  0.001251  0.000455  0.000494     2.747
   1.80774  0.77022 -0.02947 -0.98289  0.001280  0.000462  0.000471     2.767
   1.82120  0.78360 -0.02803 -0.98117  0.001309  0.000470  0.000447     2.788
   1.83465  0.79698 -0.02657 -0.97926  0.001342  0.000477  0.000420     2.814
   1.84811  0.81036 -0.02508 -0.97723  0.001378  0.000485  0.000392     2.844
   1.86157  0.82373 -0.02357 -0.97501  0.001420  0.000493  0.000361     2.882
   1.87502  0.83709 -0.02203 -0.97260  0.001467  0.000501  0.000326     2.928
   1.88847  0.85045 -0.02047 -0.96994  0.001524  0.000510  0.000286     2.987
   1.90190  0.86379 -0.01889 -0.96712  0.001590  0.000519  0.000243     3.061
   1.91532  0.87711 -0.01729 -0.96408  0.001673  0.000529  0.000193     3.160
   1.92871  0.89040 -0.01567 -0.96104  0.001770  0.000539  0.000143     3.281
   1.94205  0.90364 -0.01402 -0.95798  0.001896  0.000550  0.000087     3.450
   1.95530  0.91678 -0.01237 -0.95520  0.002047  0.000559  0.000034     3.664
   1.96838  0.92976 -0.01071 -0.95284  0.002226  0.000567 -0.000012     3.926
   1.98121  0.94248 -0.00905 -0.95090  0.002434  0.000574 -0.000045     4.242
   1.99359  0.95476 -0.00744 -0.94924  0.002651  0.000580 -0.000064     4.572
   2.00530  0.96637 -0.00588 -0.94789  0.002861  0.000585 -0.000072     4.892
   2.01610  0.97707 -0.00443 -0.94680  0.003044  0.000589 -0.000074     5.166
   2.02578  0.98666 -0.00312 -0.94587  0.003165  0.000593 -0.000074     5.337
   2.03425  0.99505 -0.00195 -0.92276  0.003184  0.000703 -0.000050     4.530
   2.03925  1.00000 -0.00126 -0.89980  0.003148  0.000821  0.000001     3.835
   2.03925  1.00010 -0.00000  0.89980  0.015699  0.006328  0.000000     2.481
   2.04425  1.00510  0.00001  0.88877  0.015031  0.006676  0.000000     2.251
   2.04994  1.01078  0.00004  0.89071  0.014139  0.006616  0.000000     2.137
   2.05641  1.01725  0.00010  0.89456  0.013253  0.006501  0.000000     2.039
   2.06376  1.02461  0.00019  0.89914  0.012397  0.006370  0.000000     1.946
   2.07213  1.03298  0.00030  0.90436  0.011580  0.006229  0.000000     1.859
   2.08165  1.04250  0.00045  0.91012  0.010812  0.006080  0.000000     1.778
   2.09248  1.05333  0.00065  0.91625  0.010101  0.005930  0.000000     1.703
   2.10480  1.06564  0.00090  0.92258  0.009450  0.005783  0.000000     1.634
   2.11882  1.07965  0.00123  0.92894  0.008861  0.005643  0.000000     1.570
   2.13476  1.09559  0.00163  0.93517  0.008332  0.005512  0.000000     1.512
   2.15289  1.11372  0.00213  0.94116  0.007858  0.005391  0.000000     1.458
   2.17352  1.13434  0.00275  0.94685  0.007436  0.005281  0.000000     1.408
   2.19699  1.15779  0.00351  0.95218  0.007060  0.005183  0.000000     1.362
   2.22368  1.18446  0.00445  0.95715  0.006725  0.005094  0.000000     1.320
   2.25404  1.21481  0.00559  0.96175  0.006428  0.005014  0.000000     1.282
   2.28858  1.24932  0.00699  0.96600  0.006163  0.004943  0.000000     1.247
   2.32787  1.28857  0.00868  0.96990  0.005930  0.004880  0.000000     1.215
   2.37256  1.33321  0.01074  0.97347  0.005724  0.004823  0.000000     1.187
   2.42340  1.38399  0.01322  0.97673  0.005543  0.004773  0.000000     1.161
   2.48123  1.44175  0.01621  0.97969  0.005386  0.004728  0.000000     1.139
   2.54702  1.50743  0.01979  0.98236  0.005251  0.004688  0.000000     1.120
   2.62185  1.58214  0.02409  0.98475  0.005134  0.004653  0.000000     1.103
   2.70697  1.66711  0.02922  0.98689  0.005035  0.004622  0.000000     1.089
   2.80381  1.76375  0.03533  0.98878  0.004952  0.004595  0.000000     1.078
   2.91396  1.87366  0.04259  0.99044  0.004881  0.004572  0.000000     1.068
   3.03925  1.99867  0.05119  0.99209  0.004820  0.004549  0.000000     1.060
